Cenario 0 S(t),Cenario 0 I(t),Cenario 0 R(t),Cenario 0 D(t),Cenario 1 S(t),Cenario 1 I(t),Cenario 1 R(t),Cenario 1 D(t),Cenario 2 S(t),Cenario 2 I(t),Cenario 2 R(t),Cenario 2 D(t),tempo(t)
070.0000000000,002.0000000000,000.0000000000,000.0000000000,070.0000000000,002.0000000000,000.0000000000,000.0000000000,070.0000000000,002.0000000000,000.0000000000,000.0000000000,000.0000
069.9860000000,002.0117272727,000.0022727273,000.0000454545,069.9860000000,002.0117272727,000.0022727273,000.0000454545,069.9860000000,002.0117272727,000.0022727273,000.0000454545,000.1000
069.9719207255,002.0235204935,000.0045587810,000.0000911756,069.9719207255,002.0235204935,000.0045587810,000.0000911756,069.9719207255,002.0235204935,000.0045587810,000.0000911756,000.2000
069.9577617640,002.0353799999,000.0068582361,000.0001371647,069.9577617640,002.0353799999,000.0068582361,000.0001371647,069.9577617640,002.0353799999,000.0068582361,000.0001371647,000.3000
069.9435227010,002.0473061310,000.0091711679,000.0001834234,069.9435227010,002.0473061310,000.0091711679,000.0001834234,069.9435227010,002.0473061310,000.0091711679,000.0001834234,000.4000
069.9292031208,002.0592992271,000.0114976522,000.0002299530,069.9292031208,002.0592992271,000.0114976522,000.0002299530,069.9292031208,002.0592992271,000.0114976522,000.0002299530,000.5000
069.9148026054,002.0713596297,000.0138377649,000.0002767553,069.9148026054,002.0713596297,000.0138377649,000.0002767553,069.9148026054,002.0713596297,000.0138377649,000.0002767553,000.6000
069.9003207354,002.0834876819,000.0161915827,000.0003238317,069.9003207354,002.0834876819,000.0161915827,000.0003238317,069.9003207354,002.0834876819,000.0161915827,000.0003238317,000.7000
069.8857570897,002.0956837280,000.0185591823,000.0003711836,069.8857570897,002.0956837280,000.0185591823,000.0003711836,069.8857570897,002.0956837280,000.0185591823,000.0003711836,000.8000
069.8711112453,002.1079481136,000.0209406411,000.0004188128,069.8711112453,002.1079481136,000.0209406411,000.0004188128,069.8711112453,002.1079481136,000.0209406411,000.0004188128,000.9000
069.8563827776,002.1202811858,000.0233360367,000.0004667207,069.8563827776,002.1202811858,000.0233360367,000.0004667207,069.8563827776,002.1202811858,000.0233360367,000.0004667207,001.0000
069.8415712602,002.1326832927,000.0257454471,000.0005149089,069.8415712602,002.1326832927,000.0257454471,000.0005149089,069.8415712602,002.1326832927,000.0257454471,000.0005149089,001.1000
069.8266762649,002.1451547842,000.0281689509,000.0005633790,069.8266762649,002.1451547842,000.0281689509,000.0005633790,069.8266762649,002.1451547842,000.0281689509,000.0005633790,001.2000
069.8116973621,002.1576960112,000.0306066268,000.0006121325,069.8116973621,002.1576960112,000.0306066268,000.0006121325,069.8116973621,002.1576960112,000.0306066268,000.0006121325,001.3000
069.7966341200,002.1703073260,000.0330585540,000.0006611711,069.7966341200,002.1703073260,000.0330585540,000.0006611711,069.7966341200,002.1703073260,000.0330585540,000.0006611711,001.4000
069.7814861053,002.1829890823,000.0355248124,000.0007104962,069.7814861053,002.1829890823,000.0355248124,000.0007104962,069.7814861053,002.1829890823,000.0355248124,000.0007104962,001.5000
069.7662528831,002.1957416351,000.0380054818,000.0007601096,069.7662528831,002.1957416351,000.0380054818,000.0007601096,069.7662528831,002.1957416351,000.0380054818,000.0007601096,001.6000
069.7509340165,002.2085653408,000.0405006427,000.0008100129,069.7509340165,002.2085653408,000.0405006427,000.0008100129,069.7509340165,002.2085653408,000.0405006427,000.0008100129,001.7000
069.7355290670,002.2214605570,000.0430103761,000.0008602075,069.7355290670,002.2214605570,000.0430103761,000.0008602075,069.7355290670,002.2214605570,000.0430103761,000.0008602075,001.8000
069.7200375942,002.2344276427,000.0455347631,000.0009106953,069.7200375942,002.2344276427,000.0455347631,000.0009106953,069.7200375942,002.2344276427,000.0455347631,000.0009106953,001.9000
069.7044591563,002.2474669583,000.0480738854,000.0009614777,069.7044591563,002.2474669583,000.0480738854,000.0009614777,069.7044591563,002.2474669583,000.0480738854,000.0009614777,002.0000
069.6887933094,002.2605788655,000.0506278251,000.0010125565,069.6887933094,002.2605788655,000.0506278251,000.0010125565,069.6887933094,002.2605788655,000.0506278251,000.0010125565,002.1000
069.6730396081,002.2737637272,000.0531966647,000.0010639333,069.6730396081,002.2737637272,000.0531966647,000.0010639333,069.6730396081,002.2737637272,000.0531966647,000.0010639333,002.2000
069.6571976051,002.2870219078,000.0557804871,000.0011156097,069.6571976051,002.2870219078,000.0557804871,000.0011156097,069.6571976051,002.2870219078,000.0557804871,000.0011156097,002.3000
069.6412668514,002.3003537729,000.0583793757,000.0011675875,069.6412668514,002.3003537729,000.0583793757,000.0011675875,069.6412668514,002.3003537729,000.0583793757,000.0011675875,002.4000
069.6252468963,002.3137596897,000.0609934141,000.0012198683,069.6252468963,002.3137596897,000.0609934141,000.0012198683,069.6252468963,002.3137596897,000.0609934141,000.0012198683,002.5000
069.6091372873,002.3272400263,000.0636226864,000.0012724537,069.6091372873,002.3272400263,000.0636226864,000.0012724537,069.6091372873,002.3272400263,000.0636226864,000.0012724537,002.6000
069.5929375703,002.3407951524,000.0662672774,000.0013253455,069.5929375703,002.3407951524,000.0662672774,000.0013253455,069.5929375703,002.3407951524,000.0662672774,000.0013253455,002.7000
069.5766472892,002.3544254390,000.0689272719,000.0013785454,069.5766472892,002.3544254390,000.0689272719,000.0013785454,069.5766472892,002.3544254390,000.0689272719,000.0013785454,002.8000
069.5602659863,002.3681312583,000.0716027553,000.0014320551,069.5602659863,002.3681312583,000.0716027553,000.0014320551,069.5602659863,002.3681312583,000.0716027553,000.0014320551,002.9000
069.5437932023,002.3819129841,000.0742938136,000.0014858763,069.5437932023,002.3819129841,000.0742938136,000.0014858763,069.5437932023,002.3819129841,000.0742938136,000.0014858763,003.0000
069.5272284759,002.3957709912,000.0770005329,000.0015400107,069.5272284759,002.3957709912,000.0770005329,000.0015400107,069.5272284759,002.3957709912,000.0770005329,000.0015400107,003.1000
069.5105713442,002.4097056559,000.0797229999,000.0015944600,069.5105713442,002.4097056559,000.0797229999,000.0015944600,069.5105713442,002.4097056559,000.0797229999,000.0015944600,003.2000
069.4938213425,002.4237173557,000.0824613018,000.0016492260,069.4938213425,002.4237173557,000.0824613018,000.0016492260,069.4938213425,002.4237173557,000.0824613018,000.0016492260,003.3000
069.4769780044,002.4378064695,000.0852155260,000.0017043105,069.4769780044,002.4378064695,000.0852155260,000.0017043105,069.4769780044,002.4378064695,000.0852155260,000.0017043105,003.4000
069.4600408618,002.4519733775,000.0879857607,000.0017597152,069.4600408618,002.4519733775,000.0879857607,000.0017597152,069.4600408618,002.4519733775,000.0879857607,000.0017597152,003.5000
069.4430094447,002.4662184613,000.0907720941,000.0018154419,069.4430094447,002.4662184613,000.0907720941,000.0018154419,069.4430094447,002.4662184613,000.0907720941,000.0018154419,003.6000
069.4258832815,002.4805421035,000.0935746150,000.0018714923,069.4258832815,002.4805421035,000.0935746150,000.0018714923,069.4258832815,002.4805421035,000.0935746150,000.0018714923,003.7000
069.4086618988,002.4949446883,000.0963934129,000.0019278683,069.4086618988,002.4949446883,000.0963934129,000.0019278683,069.4086618988,002.4949446883,000.0963934129,000.0019278683,003.8000
069.3913448216,002.5094266011,000.0992285773,000.0019845715,069.3913448216,002.5094266011,000.0992285773,000.0019845715,069.3913448216,002.5094266011,000.0992285773,000.0019845715,003.9000
069.3739315730,002.5239882286,000.1020801984,000.0020416040,069.3739315730,002.5239882286,000.1020801984,000.0020416040,069.3739315730,002.5239882286,000.1020801984,000.0020416040,004.0000
069.3564216743,002.5386299588,000.1049483669,000.0020989673,069.3564216743,002.5386299588,000.1049483669,000.0020989673,069.3564216743,002.5386299588,000.1049483669,000.0020989673,004.1000
069.3388146453,002.5533521811,000.1078331736,000.0021566635,069.3388146453,002.5533521811,000.1078331736,000.0021566635,069.3388146453,002.5533521811,000.1078331736,000.0021566635,004.2000
069.3211100039,002.5681552858,000.1107347102,000.0022146942,069.3211100039,002.5681552858,000.1107347102,000.0022146942,069.3211100039,002.5681552858,000.1107347102,000.0022146942,004.3000
069.3033072664,002.5830396651,000.1136530685,000.0022730614,069.3033072664,002.5830396651,000.1136530685,000.0022730614,069.3033072664,002.5830396651,000.1136530685,000.0022730614,004.4000
069.2854059473,002.5980057119,000.1165883408,000.0023317668,069.2854059473,002.5980057119,000.1165883408,000.0023317668,069.2854059473,002.5980057119,000.1165883408,000.0023317668,004.5000
069.2674055592,002.6130538207,000.1195406201,000.0023908124,069.2674055592,002.6130538207,000.1195406201,000.0023908124,069.2674055592,002.6130538207,000.1195406201,000.0023908124,004.6000
069.2493056134,002.6281843872,000.1225099994,000.0024502000,069.2493056134,002.6281843872,000.1225099994,000.0024502000,069.2493056134,002.6281843872,000.1225099994,000.0024502000,004.7000
069.2311056190,002.6433978085,000.1254965726,000.0025099315,069.2311056190,002.6433978085,000.1254965726,000.0025099315,069.2311056190,002.6433978085,000.1254965726,000.0025099315,004.8000
069.2128050837,002.6586944826,000.1285004337,000.0025700087,069.2128050837,002.6586944826,000.1285004337,000.0025700087,069.2128050837,002.6586944826,000.1285004337,000.0025700087,004.9000
069.1944035134,002.6740748092,000.1315216774,000.0026304335,069.1944035134,002.6740748092,000.1315216774,000.0026304335,069.1944035134,002.6740748092,000.1315216774,000.0026304335,005.0000
069.1759004122,002.6895391889,000.1345603988,000.0026912080,069.1759004122,002.6895391889,000.1345603988,000.0026912080,069.1759004122,002.6895391889,000.1345603988,000.0026912080,005.1000
069.1572952827,002.7050880239,000.1376166934,000.0027523339,069.1572952827,002.7050880239,000.1376166934,000.0027523339,069.1572952827,002.7050880239,000.1376166934,000.0027523339,005.2000
069.1385876256,002.7207217174,000.1406906570,000.0028138131,069.1385876256,002.7207217174,000.1406906570,000.0028138131,069.1385876256,002.7207217174,000.1406906570,000.0028138131,005.3000
069.1197769399,002.7364406738,000.1437823862,000.0028756477,069.1197769399,002.7364406738,000.1437823862,000.0028756477,069.1197769399,002.7364406738,000.1437823862,000.0028756477,005.4000
069.1008627230,002.7522452991,000.1468919779,000.0029378396,069.1008627230,002.7522452991,000.1468919779,000.0029378396,069.1008627230,002.7522452991,000.1468919779,000.0029378396,005.5000
069.0818444706,002.7681360000,000.1500195294,000.0030003906,069.0818444706,002.7681360000,000.1500195294,000.0030003906,069.0818444706,002.7681360000,000.1500195294,000.0030003906,005.6000
069.0627216765,002.7841131850,000.1531651385,000.0030633028,069.0627216765,002.7841131850,000.1531651385,000.0030633028,069.0627216765,002.7841131850,000.1531651385,000.0030633028,005.7000
069.0434938331,002.8001772634,000.1563289035,000.0031265781,069.0434938331,002.8001772634,000.1563289035,000.0031265781,069.0434938331,002.8001772634,000.1563289035,000.0031265781,005.8000
069.0241604309,002.8163286460,000.1595109231,000.0031902185,069.0241604309,002.8163286460,000.1595109231,000.0031902185,069.0241604309,002.8163286460,000.1595109231,000.0031902185,005.9000
069.0047209589,002.8325677445,000.1627112965,000.0032542259,069.0047209589,002.8325677445,000.1627112965,000.0032542259,069.0047209589,002.8325677445,000.1627112965,000.0032542259,006.0000
068.9851749042,002.8488949722,000.1659301235,000.0033186025,068.9851749042,002.8488949722,000.1659301235,000.0033186025,068.9851749042,002.8488949722,000.1659301235,000.0033186025,006.1000
068.9655217524,002.8653107434,000.1691675042,000.0033833501,068.9655217524,002.8653107434,000.1691675042,000.0033833501,068.9655217524,002.8653107434,000.1691675042,000.0033833501,006.2000
068.9457609874,002.8818154735,000.1724235391,000.0034484708,068.9457609874,002.8818154735,000.1724235391,000.0034484708,068.9457609874,002.8818154735,000.1724235391,000.0034484708,006.3000
068.9258920913,002.8984095793,000.1756983294,000.0035139666,068.9258920913,002.8984095793,000.1756983294,000.0035139666,068.9258920913,002.8984095793,000.1756983294,000.0035139666,006.4000
068.9059145447,002.9150934786,000.1789919767,000.0035798395,068.9059145447,002.9150934786,000.1789919767,000.0035798395,068.9059145447,002.9150934786,000.1789919767,000.0035798395,006.5000
068.8858278265,002.9318675906,000.1823045829,000.0036460917,068.8858278265,002.9318675906,000.1823045829,000.0036460917,068.8858278265,002.9318675906,000.1823045829,000.0036460917,006.6000
068.8656314139,002.9487323355,000.1856362506,000.0037127250,068.8656314139,002.9487323355,000.1856362506,000.0037127250,068.8656314139,002.9487323355,000.1856362506,000.0037127250,006.7000
068.8453247825,002.9656881347,000.1889870828,000.0037797417,068.8453247825,002.9656881347,000.1889870828,000.0037797417,068.8453247825,002.9656881347,000.1889870828,000.0037797417,006.8000
068.8249074062,002.9827354108,000.1923571830,000.0038471437,068.8249074062,002.9827354108,000.1923571830,000.0038471437,068.8249074062,002.9827354108,000.1923571830,000.0038471437,006.9000
068.8043787574,002.9998745876,000.1957466550,000.0039149331,068.8043787574,002.9998745876,000.1957466550,000.0039149331,068.8043787574,002.9998745876,000.1957466550,000.0039149331,007.0000
068.7837383066,003.0171060900,000.1991556034,000.0039831121,068.7837383066,003.0171060900,000.1991556034,000.0039831121,068.7837383066,003.0171060900,000.1991556034,000.0039831121,007.1000
068.7629855231,003.0344303439,000.2025841331,000.0040516827,068.7629855231,003.0344303439,000.2025841331,000.0040516827,068.7629855231,003.0344303439,000.2025841331,000.0040516827,007.2000
068.7421198741,003.0518477766,000.2060323494,000.0041206470,068.7421198741,003.0518477766,000.2060323494,000.0041206470,068.7421198741,003.0518477766,000.2060323494,000.0041206470,007.3000
068.7211408255,003.0693588163,000.2095003582,000.0041900072,068.7211408255,003.0693588163,000.2095003582,000.0041900072,068.7211408255,003.0693588163,000.2095003582,000.0041900072,007.4000
068.7000478416,003.0869638925,000.2129882659,000.0042597653,068.7000478416,003.0869638925,000.2129882659,000.0042597653,068.7000478416,003.0869638925,000.2129882659,000.0042597653,007.5000
068.6788403848,003.1046634357,000.2164961795,000.0043299236,068.6788403848,003.1046634357,000.2164961795,000.0043299236,068.6788403848,003.1046634357,000.2164961795,000.0043299236,007.6000
068.6575179164,003.1224578775,000.2200242061,000.0044004841,068.6575179164,003.1224578775,000.2200242061,000.0044004841,068.6575179164,003.1224578775,000.2200242061,000.0044004841,007.7000
068.6360798956,003.1403476507,000.2235724537,000.0044714491,068.6360798956,003.1403476507,000.2235724537,000.0044714491,068.6360798956,003.1403476507,000.2235724537,000.0044714491,007.8000
068.6145257804,003.1583331890,000.2271410306,000.0045428206,068.6145257804,003.1583331890,000.2271410306,000.0045428206,068.6145257804,003.1583331890,000.2271410306,000.0045428206,007.9000
068.5928550270,003.1764149275,000.2307300455,000.0046146009,068.5928550270,003.1764149275,000.2307300455,000.0046146009,068.5928550270,003.1764149275,000.2307300455,000.0046146009,008.0000
068.5710670901,003.1945933019,000.2343396080,000.0046867922,068.5710670901,003.1945933019,000.2343396080,000.0046867922,068.5710670901,003.1945933019,000.2343396080,000.0046867922,008.1000
068.5491614230,003.2128687494,000.2379698276,000.0047593966,068.5491614230,003.2128687494,000.2379698276,000.0047593966,068.5491614230,003.2128687494,000.2379698276,000.0047593966,008.2000
068.5271374771,003.2312417080,000.2416208148,000.0048324163,068.5271374771,003.2312417080,000.2416208148,000.0048324163,068.5271374771,003.2312417080,000.2416208148,000.0048324163,008.3000
068.5049947026,003.2497126169,000.2452926804,000.0049058536,068.5049947026,003.2497126169,000.2452926804,000.0049058536,068.5049947026,003.2497126169,000.2452926804,000.0049058536,008.4000
068.4827325481,003.2682819163,000.2489855357,000.0049797107,068.4827325481,003.2682819163,000.2489855357,000.0049797107,068.4827325481,003.2682819163,000.2489855357,000.0049797107,008.5000
068.4603504604,003.2869500472,000.2526994924,000.0050539898,068.4603504604,003.2869500472,000.2526994924,000.0050539898,068.4603504604,003.2869500472,000.2526994924,000.0050539898,008.6000
068.4378478852,003.3057174519,000.2564346629,000.0051286933,068.4378478852,003.3057174519,000.2564346629,000.0051286933,068.4378478852,003.3057174519,000.2564346629,000.0051286933,008.7000
068.4152242664,003.3245845736,000.2601911600,000.0052038232,068.4152242664,003.3245845736,000.2601911600,000.0052038232,068.4152242664,003.3245845736,000.2601911600,000.0052038232,008.8000
068.3924790465,003.3435518565,000.2639690970,000.0052793819,068.3924790465,003.3435518565,000.2639690970,000.0052793819,068.3924790465,003.3435518565,000.2639690970,000.0052793819,008.9000
068.3696116665,003.3626197458,000.2677685878,000.0053553718,068.3696116665,003.3626197458,000.2677685878,000.0053553718,068.3696116665,003.3626197458,000.2677685878,000.0053553718,009.0000
068.3466215659,003.3817886876,000.2715897466,000.0054317949,068.3466215659,003.3817886876,000.2715897466,000.0054317949,068.3466215659,003.3817886876,000.2715897466,000.0054317949,009.1000
068.3235081827,003.4010591291,000.2754326883,000.0055086538,068.3235081827,003.4010591291,000.2754326883,000.0055086538,068.3235081827,003.4010591291,000.2754326883,000.0055086538,009.2000
068.3002709536,003.4204315183,000.2792975282,000.0055859506,068.3002709536,003.4204315183,000.2792975282,000.0055859506,068.3002709536,003.4204315183,000.2792975282,000.0055859506,009.3000
068.2769093136,003.4399063042,000.2831843822,000.0056636876,068.2769093136,003.4399063042,000.2831843822,000.0056636876,068.2769093136,003.4399063042,000.2831843822,000.0056636876,009.4000
068.2534226965,003.4594839369,000.2870933666,000.0057418673,068.2534226965,003.4594839369,000.2870933666,000.0057418673,068.2534226965,003.4594839369,000.2870933666,000.0057418673,009.5000
068.2298105346,003.4791648671,000.2910245984,000.0058204920,068.2298105346,003.4791648671,000.2910245984,000.0058204920,068.2298105346,003.4791648671,000.2910245984,000.0058204920,009.6000
068.2060722586,003.4989495466,000.2949781948,000.0058995639,068.2060722586,003.4989495466,000.2949781948,000.0058995639,068.2060722586,003.4989495466,000.2949781948,000.0058995639,009.7000
068.1822072981,003.5188384281,000.2989542738,000.0059790855,068.1822072981,003.5188384281,000.2989542738,000.0059790855,068.1822072981,003.5188384281,000.2989542738,000.0059790855,009.8000
068.1582150809,003.5388319652,000.3029529539,000.0060590591,068.1582150809,003.5388319652,000.3029529539,000.0060590591,068.1582150809,003.5388319652,000.3029529539,000.0060590591,009.9000
068.1340950339,003.5589306123,000.3069743538,000.0061394871,068.1340950339,003.5589306123,000.3069743538,000.0061394871,068.1340950339,003.5589306123,000.3069743538,000.0061394871,010.0000
068.1098465823,003.5791348246,000.3110185931,000.0062203719,068.1098465823,003.5791348246,000.3110185931,000.0062203719,068.1098465823,003.5791348246,000.3110185931,000.0062203719,010.1000
068.0854691499,003.5994450583,000.3150857918,000.0063017158,068.0854691499,003.5994450583,000.3150857918,000.0063017158,068.0854691499,003.5994450583,000.3150857918,000.0063017158,010.2000
068.0609621593,003.6198617704,000.3191760703,000.0063835214,068.0609621593,003.6198617704,000.3191760703,000.0063835214,068.0609621593,003.6198617704,000.3191760703,000.0063835214,010.3000
