Cenario 0 S(t),Cenario 0 I(t),Cenario 0 R(t),Cenario 0 D(t),Cenario 1 S(t),Cenario 1 I(t),Cenario 1 R(t),Cenario 1 D(t),Cenario 2 S(t),Cenario 2 I(t),Cenario 2 R(t),Cenario 2 D(t),tempo(t)
300.0000000000,002.0000000000,000.0000000000,000.0000000000,300.0000000000,002.0000000000,000.0000000000,000.0000000000,300.0000000000,002.0000000000,000.0000000000,000.0000000000,000.0000
299.7000000000,002.2886363636,000.0113636364,000.0002272727,299.7000000000,002.2886363636,000.0113636364,000.0002272727,299.7000000000,002.2886363636,000.0113636364,000.0002272727,000.5000
299.3570478409,002.6185849070,000.0243672521,000.0004873450,299.3570478409,002.6185849070,000.0243672521,000.0004873450,299.3570478409,002.6185849070,000.0243672521,000.0004873450,001.0000
298.9651019173,002.9956525073,000.0392455754,000.0007849115,298.9651019173,002.9956525073,000.0392455754,000.0007849115,298.9651019173,002.9956525073,000.0392455754,000.0007849115,001.5000
298.5173041387,003.4264295330,000.0562663283,000.0011253266,298.5173041387,003.4264295330,000.0562663283,000.0011253266,298.5173041387,003.4264295330,000.0562663283,000.0011253266,002.0000
298.0058798852,003.9183854369,000.0757346779,000.0015146936,298.0058798852,003.9183854369,000.0757346779,000.0015146936,298.0058798852,003.9183854369,000.0757346779,000.0015146936,002.5000
297.4220289352,004.4799728332,000.0979982315,000.0019599646,297.4220289352,004.4799728332,000.0979982315,000.0019599646,297.4220289352,004.4799728332,000.0979982315,000.0019599646,003.0000
296.7558076304,005.1207397470,000.1234526226,000.0024690525,296.7558076304,005.1207397470,000.1234526226,000.0024690525,296.7558076304,005.1207397470,000.1234526226,000.0024690525,003.5000
295.9960030008,005.8514492644,000.1525477348,000.0030509547,295.9960030008,005.8514492644,000.1525477348,000.0030509547,295.9960030008,005.8514492644,000.1525477348,000.0030509547,004.0000
295.1300002038,006.6842051906,000.1857946056,000.0037158921,295.1300002038,006.6842051906,000.1857946056,000.0037158921,295.1300002038,006.6842051906,000.1857946056,000.0037158921,004.5000
294.1436454641,007.6325814916,000.2237730442,000.0044754609,294.1436454641,007.6325814916,000.2237730442,000.0044754609,294.1436454641,007.6325814916,000.2237730442,000.0044754609,005.0000
293.0211077920,008.7117522235,000.2671399845,000.0053427997,293.0211077920,008.7117522235,000.2671399845,000.0053427997,293.0211077920,008.7117522235,000.2671399845,000.0053427997,005.5000
291.7447441484,009.9386172749,000.3166385767,000.0063327715,291.7447441484,009.9386172749,000.3166385767,000.0063327715,291.7447441484,009.9386172749,000.3166385767,000.0063327715,006.0000
290.2949744713,011.3319175356,000.3731079930,000.0074621599,290.2949744713,011.3319175356,000.3731079930,000.0074621599,290.2949744713,011.3319175356,000.3731079930,000.0074621599,006.5000
288.6501751155,012.9123309964,000.4374938881,000.0087498778,288.6501751155,012.9123309964,000.4374938881,000.0087498778,288.6501751155,012.9123309964,000.4374938881,000.0087498778,007.0000
286.7866018138,014.7025387810,000.5108594051,000.0102171881,286.7866018138,014.7025387810,000.5108594051,000.0102171881,286.7866018138,014.7025387810,000.5108594051,000.0102171881,007.5000
284.6783562463,016.7272471964,000.5943965573,000.0118879311,284.6783562463,016.7272471964,000.5943965573,000.0118879311,284.6783562463,016.7272471964,000.5943965573,000.0118879311,008.0000
282.2974136281,019.0131486373,000.6894377346,000.0137887547,282.2974136281,019.0131486373,000.6894377346,000.0137887547,282.2974136281,019.0131486373,000.6894377346,000.0137887547,008.5000
279.6137322855,021.5888007263,000.7974669882,000.0159493398,279.6137322855,021.5888007263,000.7974669882,000.0159493398,279.6137322855,021.5888007263,000.7974669882,000.0159493398,009.0000
276.5954697122,024.4843996592,000.9201306287,000.0184026126,276.5954697122,024.4843996592,000.9201306287,000.0184026126,276.5954697122,024.4843996592,000.9201306287,000.0184026126,009.5000
273.2093327000,027.7314207642,001.0592465358,000.0211849307,273.2093327000,027.7314207642,001.0592465358,000.0211849307,273.2093327000,027.7314207642,001.0592465358,000.0211849307,010.0000
269.4210912191,031.3620973544,001.2168114265,000.0243362285,269.4210912191,031.3620973544,001.2168114265,000.0243362285,269.4210912191,031.3620973544,001.2168114265,000.0243362285,010.5000
265.1962859730,035.4087088655,001.3950051615,000.0279001032,265.1962859730,035.4087088655,001.3950051615,000.0279001032,265.1962859730,035.4087088655,001.3950051615,000.0279001032,011.0000
260.5011569319,039.9026520608,001.5961910073,000.0319238201,260.5011569319,039.9026520608,001.5961910073,000.0319238201,260.5011569319,039.9026520608,001.5961910073,000.0319238201,011.5000
255.3038134187,044.8732759600,001.8229106213,000.0364582124,255.3038134187,044.8732759600,001.8229106213,000.0364582124,255.3038134187,044.8732759600,001.8229106213,000.0364582124,012.0000
249.5756541821,050.3464734014,002.0778724165,000.0415574483,249.5756541821,050.3464734014,002.0778724165,000.0415574483,249.5756541821,050.3464734014,002.0778724165,000.0415574483,012.5000
243.2930271646,056.3430409109,002.3639319245,000.0472786385,243.2930271646,056.3430409109,002.3639319245,000.0472786385,243.2930271646,056.3430409109,002.3639319245,000.0472786385,013.0000
236.4390926732,062.8768444881,002.6840628388,000.0536812568,236.4390926732,062.8768444881,002.6840628388,000.0536812568,236.4390926732,062.8768444881,002.6840628388,000.0536812568,013.5000
229.0058206427,069.9528617203,003.0413176370,000.0608263527,229.0058206427,069.9528617203,003.0413176370,000.0608263527,229.0058206427,069.9528617203,003.0413176370,000.0608263527,014.0000
220.9960143904,077.5652085310,003.4387770786,000.0687755416,220.9960143904,077.5652085310,003.4387770786,000.0687755416,220.9960143904,077.5652085310,003.4387770786,000.0687755416,014.5000
212.4252134201,085.6952980892,003.8794884907,000.0775897698,212.4252134201,085.6952980892,003.8794884907,000.0775897698,212.4252134201,085.6952980892,003.8794884907,000.0775897698,015.0000
203.3232924272,094.3103139793,004.3663935935,000.0873278719,203.3232924272,094.3103139793,004.3663935935,000.0873278719,203.3232924272,094.3103139793,004.3663935935,000.0873278719,015.5000
193.7355506532,103.3622016966,004.9022476502,000.0980449530,193.7355506532,103.3622016966,004.9022476502,000.0980449530,193.7355506532,103.3622016966,004.9022476502,000.0980449530,016.0000
183.7230841220,112.7873829909,005.4895328871,000.1097906577,183.7230841220,112.7873829909,005.4895328871,000.1097906577,183.7230841220,112.7873829909,005.4895328871,000.1097906577,016.5000
173.3622611954,122.5073685142,006.1303702904,000.1226074058,173.3622611954,122.5073685142,006.1303702904,000.1226074058,173.3622611954,122.5073685142,006.1303702904,000.1226074058,017.0000
162.7431839860,132.4303811297,006.8264348843,000.1365286977,162.7431839860,132.4303811297,006.8264348843,000.1365286977,162.7431839860,132.4303811297,006.8264348843,000.1365286977,017.5000
151.9671130453,142.4540067231,007.5788802316,000.1515776046,151.9671130453,142.4540067231,007.5788802316,000.1515776046,151.9671130453,142.4540067231,007.5788802316,000.1515776046,018.0000
141.1429509736,152.4687710294,008.3882779971,000.1677655599,141.1429509736,152.4687710294,008.3882779971,000.1677655599,141.1429509736,152.4687710294,008.3882779971,000.1677655599,018.5000
130.3830048364,162.3624173312,009.2545778325,000.1850915566,130.3830048364,162.3624173312,009.2545778325,000.1850915566,130.3830048364,162.3624173312,009.2545778325,000.1850915566,019.0000
119.7983549143,172.0245535184,010.1770915673,000.2035418313,119.7983549143,172.0245535184,010.1770915673,000.2035418313,119.7983549143,172.0245535184,010.1770915673,000.2035418313,019.5000
109.4942256561,181.3512705407,011.1545038032,000.2230900761,109.4942256561,181.3512705407,011.1545038032,000.2230900761,109.4942256561,181.3512705407,011.1545038032,000.2230900761,020.0000
099.5657671863,190.2493240642,012.1849087495,000.2436981750,099.5657671863,190.2493240642,012.1849087495,000.2436981750,099.5657671863,190.2493240642,012.1849087495,000.2436981750,020.5000
090.0946072327,198.6395219493,013.2658708180,000.2653174164,090.0946072327,198.6395219493,013.2658708180,000.2653174164,090.0946072327,198.6395219493,013.2658708180,000.2653174164,021.0000
081.1464323773,206.4590631573,014.3945044654,000.2878900893,081.1464323773,206.4590631573,014.3945044654,000.2878900893,081.1464323773,206.4590631573,014.3945044654,000.2878900893,021.5000
072.7697241737,213.6627085020,015.5675673243,000.3113513465,072.7697241737,213.6627085020,015.5675673243,000.3113513465,072.7697241737,213.6627085020,015.5675673243,000.3113513465,022.0000
064.9956359917,220.2228040220,016.7815599862,000.3356311997,064.9956359917,220.2228040220,016.7815599862,000.3356311997,064.9956359917,220.2228040220,016.7815599862,000.3356311997,022.5000
057.8388753881,226.1282986937,018.0328259182,000.3606565184,057.8388753881,226.1282986937,018.0328259182,000.3606565184,057.8388753881,226.1282986937,018.0328259182,000.3606565184,023.0000
051.2993721432,231.3829820597,019.3176457971,000.3863529159,051.2993721432,231.3829820597,019.3176457971,000.3863529159,051.2993721432,231.3829820597,019.3176457971,000.3863529159,023.5000
045.3644712910,236.0032068774,020.6323218316,000.4126464366,045.3644712910,236.0032068774,020.6323218316,000.4126464366,045.3644712910,236.0032068774,020.6323218316,000.4126464366,024.0000
040.0113909395,240.0153599171,021.9732491434,000.4394649829,040.0113909395,240.0153599171,021.9732491434,000.4394649829,040.0113909395,240.0153599171,021.9732491434,000.4394649829,024.5000
035.2097167410,243.4533104798,023.3369727792,000.4667394556,035.2097167410,243.4533104798,023.3369727792,000.4667394556,035.2097167410,243.4533104798,023.3369727792,000.4667394556,025.0000
030.9237556901,246.3560140847,024.7202302252,000.4944046045,030.9237556901,246.3560140847,024.7202302252,000.4944046045,030.9237556901,246.3560140847,024.7202302252,000.4944046045,025.5000
027.1146290940,248.7653906009,026.1199803052,000.5223996061,027.1146290940,248.7653906009,026.1199803052,000.5223996061,027.1146290940,248.7653906009,026.1199803052,000.5223996061,026.0000
023.7420384452,250.7245415303,027.5334200245,000.5506684005,023.7420384452,250.7245415303,027.5334200245,000.5506684005,023.7420384452,250.7245415303,027.5334200245,000.5506684005,026.5000
020.7656825931,252.2763261237,028.9579912832,000.5791598257,020.7656825931,252.2763261237,028.9579912832,000.5791598257,020.7656825931,252.2763261237,028.9579912832,000.5791598257,027.0000
018.1463375361,253.4622829641,030.3913794998,000.6078275900,018.1463375361,253.4622829641,030.3913794998,000.6078275900,018.1463375361,253.4622829641,030.3913794998,000.6078275900,027.5000
015.8466314664,254.3218624260,031.8315061076,000.6366301222,015.8466314664,254.3218624260,031.8315061076,000.6366301222,015.8466314664,254.3218624260,031.8315061076,000.6366301222,028.0000
013.8315590526,254.8919242579,033.2765166895,000.6655303338,013.8315590526,254.8919242579,033.2765166895,000.6655303338,013.8315590526,254.8919242579,033.2765166895,000.6655303338,028.5000
012.0687827014,255.2064510395,034.7247662592,000.6944953252,012.0687827014,255.2064510395,034.7247662592,000.6944953252,012.0687827014,255.2064510395,034.7247662592,000.6944953252,029.0000
010.5287671006,255.2964299866,036.1748029128,000.7234960583,010.5287671006,255.2964299866,036.1748029128,000.7234960583,010.5287671006,255.2964299866,036.1748029128,000.7234960583,029.5000
009.1847887741,255.1898604154,037.6253508105,000.7525070162,009.1847887741,255.1898604154,037.6253508105,000.7525070162,009.1847887741,255.1898604154,037.6253508105,000.7525070162,030.0000
008.0128562915,254.9118505093,039.0752931992,000.7815058640,008.0128562915,254.9118505093,039.0752931992,000.7815058640,008.0128562915,254.9118505093,039.0752931992,000.7815058640,030.5000
006.9915702789,254.4847737349,040.5236559862,000.8104731197,006.9915702789,254.4847737349,040.5236559862,000.8104731197,006.9915702789,254.4847737349,040.5236559862,000.8104731197,031.0000
006.1019461887,253.9284616107,041.9695922006,000.8393918440,006.1019461887,253.9284616107,041.9695922006,000.8393918440,006.1019461887,253.9284616107,041.9695922006,000.8393918440,031.5000
005.3272172844,253.2604151649,043.4123675506,000.8682473510,005.3272172844,253.2604151649,043.4123675506,000.8682473510,005.3272172844,253.2604151649,043.4123675506,000.8682473510,032.0000
004.6526306539,252.4960221639,044.8513471823,000.8970269436,004.6526306539,252.4960221639,044.8513471823,000.8970269436,004.6526306539,252.4960221639,044.8513471823,000.8970269436,032.5000
004.0652452875,251.6487710407,046.2859836718,000.9257196734,004.0652452875,251.6487710407,046.2859836718,000.9257196734,004.0652452875,251.6487710407,046.2859836718,000.9257196734,033.0000
003.5537382972,250.7304554682,047.7158062345,000.9543161247,003.5537382972,250.7304554682,047.7158062345,000.9543161247,003.5537382972,250.7304554682,047.7158062345,000.9543161247,033.5000
003.1082230863,249.7513658186,049.1404110952,000.9828082219,003.1082230863,249.7513658186,049.1404110952,000.9828082219,003.1082230863,249.7513658186,049.1404110952,000.9828082219,034.0000
002.7200816058,248.7204654478,050.5594529464,001.0111890589,002.7200816058,248.7204654478,050.5594529464,001.0111890589,002.7200816058,248.7204654478,050.5594529464,001.0111890589,034.5000
002.3818116242,247.6455509666,051.9726374092,001.0394527482,002.3818116242,247.6455509666,051.9726374092,001.0394527482,002.3818116242,247.6455509666,051.9726374092,001.0394527482,035.0000
002.0868890982,246.5333964985,053.3797144033,001.0675942881,002.0868890982,246.5333964985,053.3797144033,001.0675942881,002.0868890982,246.5333964985,053.3797144033,001.0675942881,035.5000
001.8296451695,245.3898824926,054.7804723380,001.0956094468,001.8296451695,245.3898824926,054.7804723380,001.0956094468,001.8296451695,245.3898824926,054.7804723380,001.0956094468,036.0000
001.6051569629,244.2201100031,056.1747330339,001.1234946607,001.6051569629,244.2201100031,056.1747330339,001.1234946607,001.6051569629,244.2201100031,056.1747330339,001.1234946607,036.5000
001.4091511579,243.0285015468,057.5623472953,001.1512469459,001.4091511579,243.0285015468,057.5623472953,001.1512469459,001.4091511579,243.0285015468,057.5623472953,001.1512469459,037.0000
001.2379192107,241.8188897352,058.9431910541,001.1788638211,001.2379192107,241.8188897352,058.9431910541,001.1788638211,001.2379192107,241.8188897352,058.9431910541,001.1788638211,037.5000
001.0882430862,240.5945948953,060.3171620185,001.2063432404,001.0882430862,240.5945948953,060.3171620185,001.2063432404,001.0882430862,240.5945948953,060.3171620185,001.2063432404,038.0000
000.9573303839,239.3584928538,061.6841767622,001.2336835352,000.9573303839,239.3584928538,061.6841767622,001.2336835352,000.9573303839,239.3584928538,061.6841767622,001.2336835352,038.5000
000.8427578050,238.1130739961,063.0441681989,001.2608833640,000.8427578050,238.1130739961,063.0441681989,001.2608833640,000.8427578050,238.1130739961,063.0441681989,001.2608833640,039.0000
000.7424219792,236.8604946287,064.3970833921,001.2879416678,000.7424219792,236.8604946287,064.3970833921,001.2879416678,000.7424219792,236.8604946287,064.3970833921,001.2879416678,039.5000
000.6544967606,235.6026215824,065.7428816570,001.3148576331,000.6544967606,235.6026215824,065.7428816570,001.3148576331,000.6544967606,235.6026215824,065.7428816570,001.3148576331,040.0000
000.5773961843,234.3410708997,067.0815329160,001.3416306583,000.5773961843,234.3410708997,067.0815329160,001.3416306583,000.5773961843,234.3410708997,067.0815329160,001.3416306583,040.5000
000.5097423642,233.0772413624,068.4130162734,001.3682603255,000.5097423642,233.0772413624,068.4130162734,001.3682603255,000.5097423642,233.0772413624,068.4130162734,001.3682603255,041.0000
000.4503376922,231.8123435267,069.7373187811,001.3947463756,000.4503376922,231.8123435267,069.7373187811,001.3947463756,000.4503376922,231.8123435267,069.7373187811,001.3947463756,041.5000
000.3981407743,230.5474248564,071.0544343693,001.4210886874,000.3981407743,230.5474248564,071.0544343693,001.4210886874,000.3981407743,230.5474248564,071.0544343693,001.4210886874,042.0000
000.3522456092,229.2833914712,072.3643629197,001.4472872584,000.3522456092,229.2833914712,072.3643629197,001.4472872584,000.3522456092,229.2833914712,072.3643629197,001.4472872584,042.5000
000.3118635752,228.0210269627,073.6671094621,001.4733421892,000.3118635752,228.0210269627,073.6671094621,001.4733421892,000.3118635752,228.0210269627,073.6671094621,001.4733421892,043.0000
000.2763078489,226.7610086722,074.9626834789,001.4992536696,000.2763078489,226.7610086722,074.9626834789,001.4992536696,000.2763078489,226.7610086722,074.9626834789,001.4992536696,043.5000
000.2449799256,225.5039217735,076.2510983009,001.5250219660,000.2449799256,225.5039217735,076.2510983009,001.5250219660,000.2449799256,225.5039217735,076.2510983009,001.5250219660,044.0000
000.2173579586,224.2502714576,077.5323705837,001.5506474117,000.2173579586,224.2502714576,077.5323705837,001.5506474117,000.2173579586,224.2502714576,077.5323705837,001.5506474117,044.5000
000.1929866680,223.0004934786,078.8065198534,001.5761303971,000.1929866680,223.0004934786,078.8065198534,001.5761303971,000.1929866680,223.0004934786,078.8065198534,001.5761303971,045.0000
000.1714686069,221.7549632813,080.0735681118,001.6014713622,000.1714686069,221.7549632813,080.0735681118,001.6014713622,000.1714686069,221.7549632813,080.0735681118,001.6014713622,045.5000
000.1524565996,220.5140039063,081.3335394941,001.6266707899,000.1524565996,220.5140039063,081.3335394941,001.6266707899,000.1524565996,220.5140039063,081.3335394941,001.6266707899,046.0000
000.1356471920,219.2778928372,082.5864599708,001.6517291994,000.1356471920,219.2778928372,082.5864599708,001.6517291994,000.1356471920,219.2778928372,082.5864599708,001.6517291994,046.5000
000.1207749768,218.0468679340,083.8323570892,001.6766471418,000.1207749768,218.0468679340,083.8323570892,001.6766471418,000.1207749768,218.0468679340,083.8323570892,001.6766471418,047.0000
000.1076076741,216.8211325780,085.0712597479,001.7014251950,000.1076076741,216.8211325780,085.0712597479,001.7014251950,000.1076076741,216.8211325780,085.0712597479,001.7014251950,047.5000
000.0959418652,215.6008601336,086.3031980012,001.7260639600,000.0959418652,215.6008601336,086.3031980012,001.7260639600,000.0959418652,215.6008601336,086.3031980012,001.7260639600,048.0000
000.0855992909,214.3861978208,087.5282028883,001.7505640578,000.0855992909,214.3861978208,087.5282028883,001.7505640578,000.0855992909,214.3861978208,087.5282028883,001.7505640578,048.5000
000.0764236376,213.1772700774,088.7463062850,001.7749261257,000.0764236376,213.1772700774,088.7463062850,001.7749261257,000.0764236376,213.1772700774,088.7463062850,001.7749261257,049.0000
000.0682777464,211.9741814795,089.9575407741,001.7991508155,000.0682777464,211.9741814795,089.9575407741,001.7991508155,000.0682777464,211.9741814795,089.9575407741,001.7991508155,049.5000
000.0610411867,210.7770192808,091.1619395325,001.8232387907,000.0646594665,210.7734010009,091.1619395325,001.8232387907,000.0610411867,209.5726205224,092.3663382909,001.8473267658,050.0000
000.0546081470,209.5858556200,092.3595362330,001.8471907247,000.0612523426,209.5792319828,092.3595156746,001.8471903135,000.0546449060,207.1975097517,094.7478453423,001.8949569068,050.5000
000.0488855994,208.4007494425,093.5503649581,001.8710072992,000.0580430379,208.3916501967,093.5503067654,001.8710061353,000.0489837617,204.8486537397,097.1023624986,001.9420472500,051.0000
000.0437917016,207.2217481730,094.7344601254,001.8946892025,000.0550191168,207.2106306508,094.7343502324,001.8946870046,000.0439666329,202.5258452578,099.4301881093,001.9886037622,051.5000
