Cenario 0 S(t),Cenario 0 I(t),Cenario 0 R(t),Cenario 0 D(t),Cenario 1 S(t),Cenario 1 I(t),Cenario 1 R(t), Cenario 1 D(t),Cenario 2 S(t),Cenario 2 I(t),Cenario 2 R(t),Cenario 2 D(t),tempo(t)
70.000000,2.000000,0.000000,0.000000,0.000000,0.000000,0.000000,0.000000,0.000000,0.000000,0.000000,0.000000,0.000000
69.986000,2.011727,0.002273,0.000045,69.986000,2.011727,0.002273,0.000045,69.986000,2.011727,0.002273,0.000045,0.100000
69.971921,2.023520,0.004559,0.000091,69.971921,2.023520,0.004559,0.000091,69.971921,2.023520,0.004559,0.000091,0.200000
69.957762,2.035380,0.006858,0.000137,69.957762,2.035380,0.006858,0.000137,69.957762,2.035380,0.006858,0.000137,0.300000
69.943523,2.047306,0.009171,0.000183,69.943523,2.047306,0.009171,0.000183,69.943523,2.047306,0.009171,0.000183,0.400000
69.929203,2.059299,0.011498,0.000230,69.929203,2.059299,0.011498,0.000230,69.929203,2.059299,0.011498,0.000230,0.500000
69.914803,2.071360,0.013838,0.000277,69.914803,2.071360,0.013838,0.000277,69.914803,2.071360,0.013838,0.000277,0.600000
69.900321,2.083488,0.016192,0.000324,69.900321,2.083488,0.016192,0.000324,69.900321,2.083488,0.016192,0.000324,0.700000
69.885757,2.095684,0.018559,0.000371,69.885757,2.095684,0.018559,0.000371,69.885757,2.095684,0.018559,0.000371,0.800000
69.871111,2.107948,0.020941,0.000419,69.871111,2.107948,0.020941,0.000419,69.871111,2.107948,0.020941,0.000419,0.900000
69.856383,2.120281,0.023336,0.000467,69.856383,2.120281,0.023336,0.000467,69.856383,2.120281,0.023336,0.000467,1.000000
69.841571,2.132683,0.025745,0.000515,69.841571,2.132683,0.025745,0.000515,69.841571,2.132683,0.025745,0.000515,1.100000
69.826676,2.145155,0.028169,0.000563,69.826676,2.145155,0.028169,0.000563,69.826676,2.145155,0.028169,0.000563,1.200000
69.811697,2.157696,0.030607,0.000612,69.811697,2.157696,0.030607,0.000612,69.811697,2.157696,0.030607,0.000612,1.300000
69.796634,2.170307,0.033059,0.000661,69.796634,2.170307,0.033059,0.000661,69.796634,2.170307,0.033059,0.000661,1.400000
69.781486,2.182989,0.035525,0.000710,69.781486,2.182989,0.035525,0.000710,69.781486,2.182989,0.035525,0.000710,1.500000
69.766253,2.195742,0.038005,0.000760,69.766253,2.195742,0.038005,0.000760,69.766253,2.195742,0.038005,0.000760,1.600000
69.750934,2.208565,0.040501,0.000810,69.750934,2.208565,0.040501,0.000810,69.750934,2.208565,0.040501,0.000810,1.700000
69.735529,2.221461,0.043010,0.000860,69.735529,2.221461,0.043010,0.000860,69.735529,2.221461,0.043010,0.000860,1.800000
69.720038,2.234428,0.045535,0.000911,69.720038,2.234428,0.045535,0.000911,69.720038,2.234428,0.045535,0.000911,1.900000
69.704459,2.247467,0.048074,0.000961,69.704459,2.247467,0.048074,0.000961,69.704459,2.247467,0.048074,0.000961,2.000000
69.688793,2.260579,0.050628,0.001013,69.688793,2.260579,0.050628,0.001013,69.688793,2.260579,0.050628,0.001013,2.100000
69.673040,2.273764,0.053197,0.001064,69.673040,2.273764,0.053197,0.001064,69.673040,2.273764,0.053197,0.001064,2.200000
69.657198,2.287022,0.055780,0.001116,69.657198,2.287022,0.055780,0.001116,69.657198,2.287022,0.055780,0.001116,2.300000
69.641267,2.300354,0.058379,0.001168,69.641267,2.300354,0.058379,0.001168,69.641267,2.300354,0.058379,0.001168,2.400000
69.625247,2.313760,0.060993,0.001220,69.625247,2.313760,0.060993,0.001220,69.625247,2.313760,0.060993,0.001220,2.500000
69.609137,2.327240,0.063623,0.001272,69.609137,2.327240,0.063623,0.001272,69.609137,2.327240,0.063623,0.001272,2.600000
69.592938,2.340795,0.066267,0.001325,69.592938,2.340795,0.066267,0.001325,69.592938,2.340795,0.066267,0.001325,2.700000
69.576647,2.354425,0.068927,0.001379,69.576647,2.354425,0.068927,0.001379,69.576647,2.354425,0.068927,0.001379,2.800000
69.560266,2.368131,0.071603,0.001432,69.560266,2.368131,0.071603,0.001432,69.560266,2.368131,0.071603,0.001432,2.900000
69.543793,2.381913,0.074294,0.001486,69.543793,2.381913,0.074294,0.001486,69.543793,2.381913,0.074294,0.001486,3.000000
69.527228,2.395771,0.077001,0.001540,69.527228,2.395771,0.077001,0.001540,69.527228,2.395771,0.077001,0.001540,3.100000
69.510571,2.409706,0.079723,0.001594,69.510571,2.409706,0.079723,0.001594,69.510571,2.409706,0.079723,0.001594,3.200000
69.493821,2.423717,0.082461,0.001649,69.493821,2.423717,0.082461,0.001649,69.493821,2.423717,0.082461,0.001649,3.300000
69.476978,2.437806,0.085216,0.001704,69.476978,2.437806,0.085216,0.001704,69.476978,2.437806,0.085216,0.001704,3.400000
69.460041,2.451973,0.087986,0.001760,69.460041,2.451973,0.087986,0.001760,69.460041,2.451973,0.087986,0.001760,3.500000
69.443009,2.466218,0.090772,0.001815,69.443009,2.466218,0.090772,0.001815,69.443009,2.466218,0.090772,0.001815,3.600000
69.425883,2.480542,0.093575,0.001871,69.425883,2.480542,0.093575,0.001871,69.425883,2.480542,0.093575,0.001871,3.700000
69.408662,2.494945,0.096393,0.001928,69.408662,2.494945,0.096393,0.001928,69.408662,2.494945,0.096393,0.001928,3.800000
69.391345,2.509427,0.099229,0.001985,69.391345,2.509427,0.099229,0.001985,69.391345,2.509427,0.099229,0.001985,3.900000
69.373932,2.523988,0.102080,0.002042,69.373932,2.523988,0.102080,0.002042,69.373932,2.523988,0.102080,0.002042,4.000000
69.356422,2.538630,0.104948,0.002099,69.356422,2.538630,0.104948,0.002099,69.356422,2.538630,0.104948,0.002099,4.100000
69.338815,2.553352,0.107833,0.002157,69.338815,2.553352,0.107833,0.002157,69.338815,2.553352,0.107833,0.002157,4.200000
69.321110,2.568155,0.110735,0.002215,69.321110,2.568155,0.110735,0.002215,69.321110,2.568155,0.110735,0.002215,4.300000
69.303307,2.583040,0.113653,0.002273,69.303307,2.583040,0.113653,0.002273,69.303307,2.583040,0.113653,0.002273,4.400000
69.285406,2.598006,0.116588,0.002332,69.285406,2.598006,0.116588,0.002332,69.285406,2.598006,0.116588,0.002332,4.500000
69.267406,2.613054,0.119541,0.002391,69.267406,2.613054,0.119541,0.002391,69.267406,2.613054,0.119541,0.002391,4.600000
69.249306,2.628184,0.122510,0.002450,69.249306,2.628184,0.122510,0.002450,69.249306,2.628184,0.122510,0.002450,4.700000
69.231106,2.643398,0.125497,0.002510,69.231106,2.643398,0.125497,0.002510,69.231106,2.643398,0.125497,0.002510,4.800000
69.212805,2.658694,0.128500,0.002570,69.212805,2.658694,0.128500,0.002570,69.212805,2.658694,0.128500,0.002570,4.900000
69.194404,2.674075,0.131522,0.002630,69.194404,2.674075,0.131522,0.002630,69.194404,2.674075,0.131522,0.002630,5.000000
69.175900,2.689539,0.134560,0.002691,69.175900,2.689539,0.134560,0.002691,69.175900,2.689539,0.134560,0.002691,5.100000
69.157295,2.705088,0.137617,0.002752,69.157295,2.705088,0.137617,0.002752,69.157295,2.705088,0.137617,0.002752,5.200000
69.138588,2.720722,0.140691,0.002814,69.138588,2.720722,0.140691,0.002814,69.138588,2.720722,0.140691,0.002814,5.300000
69.119777,2.736441,0.143782,0.002876,69.119777,2.736441,0.143782,0.002876,69.119777,2.736441,0.143782,0.002876,5.400000
69.100863,2.752245,0.146892,0.002938,69.100863,2.752245,0.146892,0.002938,69.100863,2.752245,0.146892,0.002938,5.500000
69.081844,2.768136,0.150020,0.003000,69.081844,2.768136,0.150020,0.003000,69.081844,2.768136,0.150020,0.003000,5.600000
69.062722,2.784113,0.153165,0.003063,69.062722,2.784113,0.153165,0.003063,69.062722,2.784113,0.153165,0.003063,5.700000
69.043494,2.800177,0.156329,0.003127,69.043494,2.800177,0.156329,0.003127,69.043494,2.800177,0.156329,0.003127,5.800000
69.024160,2.816329,0.159511,0.003190,69.024160,2.816329,0.159511,0.003190,69.024160,2.816329,0.159511,0.003190,5.900000
69.004721,2.832568,0.162711,0.003254,69.004721,2.832568,0.162711,0.003254,69.004721,2.832568,0.162711,0.003254,6.000000
68.985175,2.848895,0.165930,0.003319,68.985175,2.848895,0.165930,0.003319,68.985175,2.848895,0.165930,0.003319,6.100000
68.965522,2.865311,0.169168,0.003383,68.965522,2.865311,0.169168,0.003383,68.965522,2.865311,0.169168,0.003383,6.200000
68.945761,2.881815,0.172424,0.003448,68.945761,2.881815,0.172424,0.003448,68.945761,2.881815,0.172424,0.003448,6.300000
68.925892,2.898410,0.175698,0.003514,68.925892,2.898410,0.175698,0.003514,68.925892,2.898410,0.175698,0.003514,6.400000
68.905915,2.915093,0.178992,0.003580,68.905915,2.915093,0.178992,0.003580,68.905915,2.915093,0.178992,0.003580,6.500000
68.885828,2.931868,0.182305,0.003646,68.885828,2.931868,0.182305,0.003646,68.885828,2.931868,0.182305,0.003646,6.600000
68.865631,2.948732,0.185636,0.003713,68.865631,2.948732,0.185636,0.003713,68.865631,2.948732,0.185636,0.003713,6.700000
68.845325,2.965688,0.188987,0.003780,68.845325,2.965688,0.188987,0.003780,68.845325,2.965688,0.188987,0.003780,6.800000
68.824907,2.982735,0.192357,0.003847,68.824907,2.982735,0.192357,0.003847,68.824907,2.982735,0.192357,0.003847,6.900000
68.804379,2.999875,0.195747,0.003915,68.804379,2.999875,0.195747,0.003915,68.804379,2.999875,0.195747,0.003915,7.000000
68.783738,3.017106,0.199156,0.003983,68.783738,3.017106,0.199156,0.003983,68.783738,3.017106,0.199156,0.003983,7.100000
68.762986,3.034430,0.202584,0.004052,68.762986,3.034430,0.202584,0.004052,68.762986,3.034430,0.202584,0.004052,7.200000
68.742120,3.051848,0.206032,0.004121,68.742120,3.051848,0.206032,0.004121,68.742120,3.051848,0.206032,0.004121,7.300000
68.721141,3.069359,0.209500,0.004190,68.721141,3.069359,0.209500,0.004190,68.721141,3.069359,0.209500,0.004190,7.400000
68.700048,3.086964,0.212988,0.004260,68.700048,3.086964,0.212988,0.004260,68.700048,3.086964,0.212988,0.004260,7.500000
68.678840,3.104663,0.216496,0.004330,68.678840,3.104663,0.216496,0.004330,68.678840,3.104663,0.216496,0.004330,7.600000
68.657518,3.122458,0.220024,0.004400,68.657518,3.122458,0.220024,0.004400,68.657518,3.122458,0.220024,0.004400,7.700000
68.636080,3.140348,0.223572,0.004471,68.636080,3.140348,0.223572,0.004471,68.636080,3.140348,0.223572,0.004471,7.800000
68.614526,3.158333,0.227141,0.004543,68.614526,3.158333,0.227141,0.004543,68.614526,3.158333,0.227141,0.004543,7.900000
68.592855,3.176415,0.230730,0.004615,68.592855,3.176415,0.230730,0.004615,68.592855,3.176415,0.230730,0.004615,8.000000
68.571067,3.194593,0.234340,0.004687,68.571067,3.194593,0.234340,0.004687,68.571067,3.194593,0.234340,0.004687,8.100000
68.549161,3.212869,0.237970,0.004759,68.549161,3.212869,0.237970,0.004759,68.549161,3.212869,0.237970,0.004759,8.200000
68.527137,3.231242,0.241621,0.004832,68.527137,3.231242,0.241621,0.004832,68.527137,3.231242,0.241621,0.004832,8.300000
68.504995,3.249713,0.245293,0.004906,68.504995,3.249713,0.245293,0.004906,68.504995,3.249713,0.245293,0.004906,8.400000
68.482733,3.268282,0.248986,0.004980,68.482733,3.268282,0.248986,0.004980,68.482733,3.268282,0.248986,0.004980,8.500000
68.460350,3.286950,0.252699,0.005054,68.460350,3.286950,0.252699,0.005054,68.460350,3.286950,0.252699,0.005054,8.600000
68.437848,3.305717,0.256435,0.005129,68.437848,3.305717,0.256435,0.005129,68.437848,3.305717,0.256435,0.005129,8.700000
68.415224,3.324585,0.260191,0.005204,68.415224,3.324585,0.260191,0.005204,68.415224,3.324585,0.260191,0.005204,8.800000
68.392479,3.343552,0.263969,0.005279,68.392479,3.343552,0.263969,0.005279,68.392479,3.343552,0.263969,0.005279,8.900000
68.369612,3.362620,0.267769,0.005355,68.369612,3.362620,0.267769,0.005355,68.369612,3.362620,0.267769,0.005355,9.000000
68.346622,3.381789,0.271590,0.005432,68.346622,3.381789,0.271590,0.005432,68.346622,3.381789,0.271590,0.005432,9.100000
68.323508,3.401059,0.275433,0.005509,68.323508,3.401059,0.275433,0.005509,68.323508,3.401059,0.275433,0.005509,9.200000
68.300271,3.420432,0.279298,0.005586,68.300271,3.420432,0.279298,0.005586,68.300271,3.420432,0.279298,0.005586,9.300000
68.276909,3.439906,0.283184,0.005664,68.276909,3.439906,0.283184,0.005664,68.276909,3.439906,0.283184,0.005664,9.400000
68.253423,3.459484,0.287093,0.005742,68.253423,3.459484,0.287093,0.005742,68.253423,3.459484,0.287093,0.005742,9.500000
68.229811,3.479165,0.291025,0.005820,68.229811,3.479165,0.291025,0.005820,68.229811,3.479165,0.291025,0.005820,9.600000
68.206072,3.498950,0.294978,0.005900,68.206072,3.498950,0.294978,0.005900,68.206072,3.498950,0.294978,0.005900,9.700000
68.182207,3.518838,0.298954,0.005979,68.182207,3.518838,0.298954,0.005979,68.182207,3.518838,0.298954,0.005979,9.800000
68.158215,3.538832,0.302953,0.006059,68.158215,3.538832,0.302953,0.006059,68.158215,3.538832,0.302953,0.006059,9.900000
68.134095,3.558931,0.306974,0.006139,68.134095,3.558931,0.306974,0.006139,68.134095,3.558931,0.306974,0.006139,10.000000
68.109847,3.579135,0.311019,0.006220,68.109847,3.579135,0.311019,0.006220,68.109847,3.579135,0.311019,0.006220,10.100000
68.085469,3.599445,0.315086,0.006302,68.085469,3.599445,0.315086,0.006302,68.085469,3.599445,0.315086,0.006302,10.200000
68.060962,3.619862,0.319176,0.006384,68.060962,3.619862,0.319176,0.006384,68.060962,3.619862,0.319176,0.006384,10.300000
68.036325,3.640385,0.323290,0.006466,68.036325,3.640385,0.323290,0.006466,68.036325,3.640385,0.323290,0.006466,10.400000
68.011557,3.661016,0.327426,0.006549,68.011557,3.661016,0.327426,0.006549,68.011557,3.661016,0.327426,0.006549,10.500000
67.986658,3.681755,0.331587,0.006632,67.986658,3.681755,0.331587,0.006632,67.986658,3.681755,0.331587,0.006632,10.600000
67.961627,3.702603,0.335770,0.006715,67.961627,3.702603,0.335770,0.006715,67.961627,3.702603,0.335770,0.006715,10.700000
67.936464,3.723559,0.339978,0.006800,67.936464,3.723559,0.339978,0.006800,67.936464,3.723559,0.339978,0.006800,10.800000
67.911167,3.744624,0.344209,0.006884,67.911167,3.744624,0.344209,0.006884,67.911167,3.744624,0.344209,0.006884,10.900000
67.885737,3.765799,0.348464,0.006969,67.885737,3.765799,0.348464,0.006969,67.885737,3.765799,0.348464,0.006969,11.000000
67.860172,3.787084,0.352744,0.007055,67.860172,3.787084,0.352744,0.007055,67.860172,3.787084,0.352744,0.007055,11.100000
67.834473,3.808479,0.357047,0.007141,67.834473,3.808479,0.357047,0.007141,67.834473,3.808479,0.357047,0.007141,11.200000
67.808639,3.829986,0.361375,0.007228,67.808639,3.829986,0.361375,0.007228,67.808639,3.829986,0.361375,0.007228,11.300000
67.782668,3.851605,0.365727,0.007315,67.782668,3.851605,0.365727,0.007315,67.782668,3.851605,0.365727,0.007315,11.400000
67.756561,3.873335,0.370104,0.007402,67.756561,3.873335,0.370104,0.007402,67.756561,3.873335,0.370104,0.007402,11.500000
67.730316,3.895178,0.374506,0.007490,67.730316,3.895178,0.374506,0.007490,67.730316,3.895178,0.374506,0.007490,11.600000
67.703934,3.917134,0.378932,0.007579,67.703934,3.917134,0.378932,0.007579,67.703934,3.917134,0.378932,0.007579,11.700000
67.677414,3.939203,0.383383,0.007668,67.677414,3.939203,0.383383,0.007668,67.677414,3.939203,0.383383,0.007668,11.800000
67.650754,3.961386,0.387860,0.007757,67.650754,3.961386,0.387860,0.007757,67.650754,3.961386,0.387860,0.007757,11.900000
67.623955,3.983684,0.392361,0.007847,67.623955,3.983684,0.392361,0.007847,67.623955,3.983684,0.392361,0.007847,12.000000
67.597016,4.006096,0.396888,0.007938,67.597016,4.006096,0.396888,0.007938,67.597016,4.006096,0.396888,0.007938,12.100000
67.569936,4.028624,0.401441,0.008029,67.569936,4.028624,0.401441,0.008029,67.569936,4.028624,0.401441,0.008029,12.200000
67.542714,4.051267,0.406019,0.008120,67.542714,4.051267,0.406019,0.008120,67.542714,4.051267,0.406019,0.008120,12.300000
67.515351,4.074027,0.410622,0.008212,67.515351,4.074027,0.410622,0.008212,67.515351,4.074027,0.410622,0.008212,12.400000
67.487845,4.096903,0.415252,0.008305,67.487845,4.096903,0.415252,0.008305,67.487845,4.096903,0.415252,0.008305,12.500000
67.460196,4.119897,0.419907,0.008398,67.460196,4.119897,0.419907,0.008398,67.460196,4.119897,0.419907,0.008398,12.600000
67.432403,4.143008,0.424589,0.008492,67.432403,4.143008,0.424589,0.008492,67.432403,4.143008,0.424589,0.008492,12.700000
67.404466,4.166237,0.429297,0.008586,67.404466,4.166237,0.429297,0.008586,67.404466,4.166237,0.429297,0.008586,12.800000
67.376384,4.189585,0.434031,0.008681,67.376384,4.189585,0.434031,0.008681,67.376384,4.189585,0.434031,0.008681,12.900000
67.348156,4.213052,0.438792,0.008776,67.348156,4.213052,0.438792,0.008776,67.348156,4.213052,0.438792,0.008776,13.000000
67.319782,4.236639,0.443580,0.008872,67.319782,4.236639,0.443580,0.008872,67.319782,4.236639,0.443580,0.008872,13.100000
67.291261,4.260345,0.448394,0.008968,67.291261,4.260345,0.448394,0.008968,67.291261,4.260345,0.448394,0.008968,13.200000
67.262592,4.284172,0.453236,0.009065,67.262592,4.284172,0.453236,0.009065,67.262592,4.284172,0.453236,0.009065,13.300000
67.233776,4.308120,0.458104,0.009162,67.233776,4.308120,0.458104,0.009162,67.233776,4.308120,0.458104,0.009162,13.400000
67.204811,4.332190,0.463000,0.009260,67.204811,4.332190,0.463000,0.009260,67.204811,4.332190,0.463000,0.009260,13.500000
67.175696,4.356381,0.467922,0.009358,67.175696,4.356381,0.467922,0.009358,67.175696,4.356381,0.467922,0.009358,13.600000
67.146432,4.380695,0.472873,0.009457,67.146432,4.380695,0.472873,0.009457,67.146432,4.380695,0.472873,0.009457,13.700000
67.117017,4.405132,0.477851,0.009557,67.117017,4.405132,0.477851,0.009557,67.117017,4.405132,0.477851,0.009557,13.800000
67.087451,4.429692,0.482857,0.009657,67.087451,4.429692,0.482857,0.009657,67.087451,4.429692,0.482857,0.009657,13.900000
67.057733,4.454376,0.487891,0.009758,67.057733,4.454376,0.487891,0.009758,67.057733,4.454376,0.487891,0.009758,14.000000
67.027863,4.479184,0.492952,0.009859,67.027863,4.479184,0.492952,0.009859,67.027863,4.479184,0.492952,0.009859,14.100000
66.997840,4.504117,0.498042,0.009961,66.997840,4.504117,0.498042,0.009961,66.997840,4.504117,0.498042,0.009961,14.200000
66.967664,4.529176,0.503161,0.010063,66.967664,4.529176,0.503161,0.010063,66.967664,4.529176,0.503161,0.010063,14.300000
66.937333,4.554360,0.508307,0.010166,66.937333,4.554360,0.508307,0.010166,66.937333,4.554360,0.508307,0.010166,14.400000
66.906847,4.579670,0.513483,0.010270,66.906847,4.579670,0.513483,0.010270,66.906847,4.579670,0.513483,0.010270,14.500000
66.876206,4.605107,0.518687,0.010374,66.876206,4.605107,0.518687,0.010374,66.876206,4.605107,0.518687,0.010374,14.600000
66.845409,4.630671,0.523920,0.010478,66.845409,4.630671,0.523920,0.010478,66.845409,4.630671,0.523920,0.010478,14.700000
66.814455,4.656363,0.529182,0.010584,66.814455,4.656363,0.529182,0.010584,66.814455,4.656363,0.529182,0.010584,14.800000
66.783344,4.682183,0.534474,0.010689,66.783344,4.682183,0.534474,0.010689,66.783344,4.682183,0.534474,0.010689,14.900000
66.752075,4.708131,0.539794,0.010796,66.752075,4.708131,0.539794,0.010796,66.752075,4.708131,0.539794,0.010796,15.000000
66.720647,4.734209,0.545144,0.010903,66.720647,4.734209,0.545144,0.010903,66.720647,4.734209,0.545144,0.010903,15.100000
66.689060,4.760416,0.550524,0.011010,66.689060,4.760416,0.550524,0.011010,66.689060,4.760416,0.550524,0.011010,15.200000
66.657313,4.786753,0.555934,0.011119,66.657313,4.786753,0.555934,0.011119,66.657313,4.786753,0.555934,0.011119,15.300000
66.625406,4.813221,0.561373,0.011227,66.625406,4.813221,0.561373,0.011227,66.625406,4.813221,0.561373,0.011227,15.400000
66.593338,4.839820,0.566843,0.011337,66.593338,4.839820,0.566843,0.011337,66.593338,4.839820,0.566843,0.011337,15.500000
66.561108,4.866550,0.572343,0.011447,66.561108,4.866550,0.572343,0.011447,66.561108,4.866550,0.572343,0.011447,15.600000
66.528715,4.893412,0.577873,0.011557,66.528715,4.893412,0.577873,0.011557,66.528715,4.893412,0.577873,0.011557,15.700000
66.496160,4.920406,0.583433,0.011669,66.496160,4.920406,0.583433,0.011669,66.496160,4.920406,0.583433,0.011669,15.800000
66.463441,4.947534,0.589025,0.011780,66.463441,4.947534,0.589025,0.011780,66.463441,4.947534,0.589025,0.011780,15.900000
66.430558,4.974795,0.594647,0.011893,66.430558,4.974795,0.594647,0.011893,66.430558,4.974795,0.594647,0.011893,16.000000
66.397511,5.002189,0.600300,0.012006,66.397511,5.002189,0.600300,0.012006,66.397511,5.002189,0.600300,0.012006,16.100000
66.364297,5.029718,0.605984,0.012120,66.364297,5.029718,0.605984,0.012120,66.364297,5.029718,0.605984,0.012120,16.200000
66.330918,5.057382,0.611700,0.012234,66.330918,5.057382,0.611700,0.012234,66.330918,5.057382,0.611700,0.012234,16.300000
